"Theta [deg]","dB(RealizedGainTotal) [] - Freq='4GHz' Phi='0deg'","dB(RealizedGainTotal) [] - Freq='4GHz' Phi='45deg'","dB(RealizedGainTotal) [] - Freq='4GHz' Phi='90.0000000000002deg'","dB(RealizedGainTotal) [] - Freq='4GHz' Phi='135deg'"
-90.0000000000002,1.25473466611176,0.760615996757727,0.159190578237262,0.769561851989593
-89.5000000000003,1.27972833919301,0.784571918641089,0.1795880073369,0.777100303014389
-88.9999999999998,1.30508529088468,0.808626599826542,0.200135350445599,0.784192940239915
-88.4999999999999,1.33078641879525,0.832762043762138,0.220811052253158,0.790838843790824
-88,1.35681170482552,0.856959981489997,0.241591904794504,0.797036991892562
-87.5000000000001,1.38314022320279,0.881201956271399,0.26245304030303,0.802786163438375
-87.0000000000002,1.40975014541258,0.90546940456976,0.28336793294597,0.808084843637223
-86.5000000000003,1.43661874293426,0.929743733083626,0.30430841028116,0.81293113343447
-85.9999999999998,1.46372238873709,0.954006391573299,0.325244675215961,0.817322663349375
-85.4999999999999,1.49103655852821,0.97823894126846,0.34614533917711,0.821256512325195
-85,1.51853583276375,1.00242311868016,0.366977467116441,0.824729132136461
-84.5000000000001,1.54619390043622,1.02654089466676,0.387706634882151,0.82773627784681
-84.0000000000002,1.57398356563951,1.05057452862328,0.408296999379183,0.830272944757722
-83.5000000000003,1.60187675788364,1.07450661767514,0.428711381828771,0.832333312234256
-82.9999999999998,1.62984454708759,1.09832014076225,0.44891136431489,0.833910694739419
-82.4999999999999,1.65785716411979,1.12199849749958,0.468857399678079,0.834997500351949
-82,1.68588402768393,1.14552554169525,0.488508934685321,0.835585196985836
-81.5000000000001,1.71389377826184,1.16888560940024,0.507824546270775,0.835664286471445
-81.0000000000002,1.74185431972833,1.19206354135436,0.526762090505956,0.835224286598817
-80.5000000000003,1.76973286914576,1.21504469968474,0.5452788638242,0.834253721163416
-79.9999999999998,1.79749601512897,1.23781497870566,0.563331775889814,0.832740117993696
-79.4999999999999,1.82510978504763,1.26036080966463,0.580877533372679,0.830670014876721
-79,1.85253972120305,1.28266915928075,0.59787283376218,0.828028973236005
-78.5000000000001,1.87975096598186,1.30472752192772,0.614274568231848,0.824801599350631
-78.0000000000002,1.90670835585258,1.32652390532891,0.630040032449244,0.820971572840995
-77.5000000000003,1.93337652393271,1.34804680965433,0.645127144113538,0.816521682080858
-76.9999999999998,1.95972001071704,1.36928519994248,0.659494665895985,0.811433866130279
-76.4999999999999,1.98570338242238,1.39022847181189,0.673102432357308,0.805689262718736
-76,2.01129135627274,1.41086641048151,0.685911579318535,0.799268261742584
-75.5000000000001,2.03644893192173,1.43118914318204,0.697884774069482,0.792150563676643
-75.0000000000002,2.06114152808942,1.45118708511611,0.708986444709377,0.784315242236478
-74.5000000000003,2.08533512337702,1.47085087920847,0.71918300682923,0.775740810565622
-73.9999999999998,2.10899640011826,1.49017132998236,0.728443085661547,0.766405290162639
-73.4999999999999,2.13209289003088,1.50913933199811,0.736737731742785,0.756286281704191
-73,2.15459312034557,1.5277457933988,0.744040628055555,0.745361036866752
-72.5000000000001,2.17646675901476,1.545981555218,0.750328286541086,0.733606530197492
-72.0000000000002,2.19768475753985,1.56383730721866,0.755580231800302,0.720999530038668
-71.5000000000002,2.21821948990309,1.58130350114326,0.759779169732447,0.707516667467382
-70.9999999999998,2.23804488605061,1.59837026236389,0.762911138797538,0.693134502177303
-70.4999999999999,2.25713655834577,1.6150273010208,0.764965641533731,0.677829584199262
-70,2.27547191939852,1.63126382382841,0.765935753916585,0.661578510336424
-69.5000000000001,2.29303028967662,1.64706844780307,0.765818210117801,0.644357974177751
-69.0000000000001,2.30979299331962,1.66242911722561,0.764613460210127,0.626144808551389
-68.5000000000002,2.32574344060713,1.67733302518878,0.762325698379049,0.606916019288988
-67.9999999999998,2.34086719557996,1.69176654109408,0.758962859244814,0.586648809195423
-67.4999999999999,2.35515202737704,1.70571514544868,0.754536579977964,0.565320591156068
-67,2.3685879439344,1.71916337327249,0.749062126014042,0.542908989366771
-66.5,2.38116720679473,1.73209476735231,0.742558278344988,0.519391827745912
-66.0000000000001,2.39288432589993,1.74449184247656,0.735047180594161,0.494747104678121
-65.5000000000002,2.40373603338419,1.75633606164782,0.726554144373723,0.468952953354487
-64.9999999999998,2.41372123555311,1.76760782510301,0.717107411784629,0.441987587109643
-64.4999999999999,2.42284094242627,1.77828647277283,0.706737874354202,0.413829229318742
-64,2.43109817443549,1.78835030058671,0.695478748217346,0.384456027602984
-63.5,2.43849784611056,1.79777659077754,0.683365205936396,0.353845952306485
-63.0000000000001,2.44504662684635,1.80654165606942,0.670433966017728,0.3219766794468
-62.5000000000002,2.45075277912894,1.81462089734249,0.656722841917334,0.288825458606788
-61.9999999999998,2.45562597490265,1.82198887407045,0.642270253122692,0.254368966526937
-61.4999999999999,2.45967709108007,1.82861938652311,0.627114701742191,0.218583147471045
-60.9999999999999,2.46291798553122,1.83448556842511,0.611294218910083,0.181443041772231
-60.5,2.46536125522917,1.83955998847166,0.594845786202879,0.142922604316954
-60.0000000000001,2.46701997857369,1.84381475882842,0.577804738139374,0.102994515086803
-59.5000000000002,2.46790744425396,1.84722164849463,0.560204152672106,0.0616299842454115
-58.9999999999998,2.46803686933849,1.84975219919386,0.542074237344747,0.0187985546236921
-58.4999999999998,2.46742110958711,1.85137784128221,0.523441719454943,-0.0255320951864765
-57.9999999999999,2.46607236525756,1.85207000703776,0.504329249095399,-0.0713963435823228
-57.5,2.46400188591753,1.85180023862299,0.48475482431629,-0.118830810685189
-57,2.46121967796475,1.85054028800049,0.464731247833698,-0.167874530929656
-56.5,2.45773421869239,1.84826220613636,0.444265624677907,-0.218569109151439
-56,2.45355218080781,1.84493841894842,0.423358909917067,-0.270958855651366
-55.5,2.44867817131254,1.84054178765025,0.402005515096788,-0.325090895614206
-55,2.44311448857489,1.83504565140911,0.380192981304085,-0.381015248236932
-54.5,2.43686090127022,1.82842385057251,0.357901725805156,-0.438784870981076
-54,2.42991445262738,1.82065072912451,0.335104868038669,-0.498455664512652
-53.5,2.42226929310228,1.81170111550176,0.311768139397657,-0.560086434134315
-53,2.41391654420742,1.80155028142434,0.287849879739752,-0.623738803851473
-52.5,2.40484419576306,1.79017387896897,0.263301121970707,-0.689477079644251
-52,2.39503703831135,1.77754785671953,0.238065764396746,-0.757368059040092
-51.5,2.38447663186074,1.7636483564588,0.212080828889174,-0.827480784690802
-51,2.37314131151563,1.74845159250094,0.185276801299463,-0.899886240347679
-50.5,2.36100622991086,1.73193371638781,0.157578049054001,-0.974656988388983
-50,2.34804343572781,1.71407067026656,0.128903309490824,-1.05186674887595
-49.5,2.33422198693375,1.69483803281091,0.0991662413113527,-1.13158992098698
-49,2.31950809677531,1.67421086202435,0.0682760305421463,-1.21390104859024
-48.5,2.30386530998491,1.65216353965213,0.0361380416543999,-1.29887423265476
-48,2.28725470614104,1.62866962221105,0.00265450398545505,-1.38658249415482
-47.5,2.26963512666974,1.6037017038065,-0.0322747766508158,-1.47709709208397
-47,2.25096342159855,1.57723129593301,-0.0687516912945416,-1.5704868021525
-46.5,2.23119471188068,1.54922872933497,-0.106879096032258,-1.66681716268956
-46,2.21028266290424,1.51966308273688,-0.146760084558047,-1.76614969519853
-45.5,2.1881797646896,1.48850214283332,-0.188497274016391,-1.86854110791945
-45,2.16483761425966,1.45571239936381,-0.232192112297028,-1.97404249162761
-44.5,2.14020719573831,1.42125907839574,-0.277944214090159,-2.08269851773904
-44,2.11423915389003,1.38510621611385,-0.325850732063105,-2.19454664959641
-43.5,2.08688405704834,1.34721677448645,-0.376005768516084,-2.30961637856553
-43,2.0580926456885,1.30755279916957,-0.428499831845491,-2.42792849727495
-42.5,2.02781606326689,1.26607561894628,-0.483419341113648,-2.54949442296683
-42,1.99600606636882,1.22274608491023,-0.540846181016421,-2.67431558447993
-41.5,1.96261521166497,1.17752484651607,-0.600857308575324,-2.80238288683515
-41,1.92759701766427,1.13037266056914,-0.663524411971238,-2.93367626771194
-40.5,1.89090609975557,1.08125072823913,-0.728913621096415,-3.06816436025881
-40,1.85249827754186,1.03012105428465,-0.797085268637359,-3.20580427663297
-39.5,1.81233065397869,0.976946821894172,-0.868093699816784,-3.34654152636821
-39,1.77036166632254,0.921692775902281,-0.941987128324388,-3.49031008307521
-38.5,1.72655110936749,0.864325606647175,-1.01880753544904,-3.63703261203271
-38,1.68086013189057,0.804814326408344,-1.09859060899191,-3.78662086987618
-37.5,1.63325120763283,0.743130630209694,-1.18136571818601,-3.93897628577848
-37,1.58368808250605,0.679249232798709,-1.26715592057079,-4.09399073120126
-36.5,1.53213570003256,0.613148173815817,-1.3559779965651,-4.25154748243437
-36,1.4785601072918,0.544809083545665,-1.44784250734729,-4.41152237671677
-35.5,1.42292834386138,0.474217402188071,-1.54275387157991,-4.57378515873896
-35,1.36520831639989,0.401362546291002,-1.6407104565081,-4.73820100978949
-34.5,1.30536866162476,0.326238016836665,-1.74170467901092,-4.90463224677505
-34,1.24337860048979,0.248841444455045,-1.8457231122892,-5.07294017289846
-33.5,1.17920778636782,0.169174568335922,-1.95274659403402,-5.24298705603494
-33,1.11282614999385,0.0872431466066444,-2.06275033212887,-5.41463820495001
-32.5,1.04420374382989,0.00305679721771855,-2.17570400420015,-5.58776410762698
-32,0.973310588375474,-0.0833712302886053,-2.29157184763858,-5.76224259030595
-31.5,0.900116522774273,-0.172024350381704,-2.41031273707063,-5.93796095058971
-31,0.824591061862875,-0.262883001392156,-2.53188024666104,-6.11481801334067
-30.5,0.746703261576251,-0.355925065112005,-2.65622269507487,-6.29272605426416
-30,0.666421594375148,-0.451126340321847,-2.7832831714173,-6.47161253320013
-29.5,0.583713836096001,-0.548461063159613,-2.91299954100234,-6.65142157733705
-29,0.49854696535365,-0.647902466081209,-3.04530443037225,-6.83211515386179
-28.5,0.410887076353758,-0.749423366125939,-3.18012519159794,-7.01367387195755
-28,0.320699305704293,-0.852996772315153,-3.31738384653075,-7.19609735545845
-27.5,0.22794777355511,-0.958596501314581,-3.45699701234493,-7.37940412971017
-27,0.132595539149974,-1.06619778999853,-3.59887581039906,-7.56363096904421
-26.5,0.0346045706465737,-1.17577789329524,-3.74292576114853,-7.74883165448076
-26,-0.0660642711473607,-1.28731665568304,-3.88904666854769,-7.9350750945431
-25.5,-0.169451235659884,-1.40079704495826,-4.03713249807874,-8.12244276510074
-25,-0.27559767276061,-1.51620563741653,-4.18707125321838,-8.31102542672531
-24.5,-0.384546011124273,-1.63353304437594,-4.33874485578735,-8.50091907997579
-24,-0.496339725701863,-1.75277427101512,-4.49202903619853,-8.69222012030502
-23.5,-0.611023295342069,-1.87392899978386,-4.6467932401046,-8.8850196550675
-23,-0.728642151676865,-1.99700179214449,-4.80290055831804,-9.07939694582943
-22.5,-0.849242620439074,-2.1220022040843,-4.96020768710491,-9.27541194060182
-22,-0.972871856419587,-2.24894481266455,-5.11856492600769,-9.47309686392149
-21.5,-1.09957777330109,-2.37784915279541,-5.27781622019848,-9.67244683961747
-21,-1.2294089696279,-2.5087395653987,-5.43779925396838,-9.87340953398455
-20.5,-1.36241465219212,-2.64164496009149,-5.59834560129326,-10.0758738290588
-20,-1.49864455813913,-2.77659849744034,-5.75928093845139,-10.2796575707149
-19.5,-1.6381488771254,-2.91363719764845,-5.92042532238805,-10.4844944891854
-19,-1.78097817490226,-3.0528014841963,-6.08159353691604,-10.6900204658926
-18.5,-1.9271833197556,-3.19413467241692,-6.24259550691133,-10.8957594260773
-18,-2.07681541330854,-3.33768241420959,-6.40323677843648,-11.1011092771516
-17.5,-2.22992572729257,-3.48349211104507,-6.56331906023229,-11.305328491784
-17,-2.38656564802075,-3.63161230806446,-6.72264081933174,-11.5075241524979
-16.5,-2.54678663045286,-3.78209208239886,-6.88099792074629,-11.7066425243049
-16,-2.71064016393272,-3.93498043882052,-7.03818429836503,-11.9014634863868
-15.5,-2.87817775190371,-4.09032572546913,-7.19399264152173,-12.0906004011791
-15,-3.04945090816969,-4.24817508166608,-7.34821507926336,-12.2725071793603
-14.5,-3.22451117257107,-4.40857392873836,-7.50064384236411,-12.4454943431091
-14,-3.40341014928306,-4.57156551331284,-7.6510718817245,-12.6077557138607
-13.5,-3.58619957132279,-4.73719051071764,-7.79929342113925,-12.7574068690407
-13,-3.77293139526727,-4.90548669393775,-7.94510442265119,-12.8925356604969
-12.5,-3.96365793063787,-5.07648867101988,-8.08830294394613,-13.0112638546996
-12,-4.1584320088919,-5.25022769090764,-8.22868936956467,-13.1118174187109
-11.5,-4.35730719748369,-5.42673151441487,-8.36606650114891,-13.1926013261806
-11,-4.56033806500008,-5.60602434341015,-8.50023949647712,-13.252273291626
-10.5,-4.76758050394825,-5.78812679729188,-8.63101565260026,-13.2898099165125
-10,-4.97909211836079,-5.97305592147662,-8.75820403484097,-13.3045586735777
-9.49999999999998,-5.19493268398561,-6.16082520790379,-8.8816149605599,-13.2962701491066
-9.00000000000002,-5.41516468943997,-6.35144460247717,-9.00105935420416,-13.2651069536513
-8.5,-5.63985396732145,-6.54492046891267,-9.11634799794318,-13.2116283870117
-7.99999999999998,-5.86907042488344,-6.74125547264845,-9.2272907098689,-13.1367527967046
-7.50000000000002,-6.10288888449215,-6.94044834230099,-9.33369548896126,-13.0417020420823
-7,-6.3413900446868,-7.14249345962965,-9.43536767246484,-12.9279341204373
-6.49999999999998,-6.58466157326498,-7.34738022213209,-9.53210915665825,-12.7970706072448
-6.00000000000001,-6.83279934441343,-7.55509211527622,-9.62371773590507,-12.6508251517561
-5.5,-7.08590883251082,-7.76560542406643,-9.70998661705235,-12.4909381002503
-5,-7.34410667584869,-7.97888750626987,-9.79070416641607,-12.3191207431839
-4.5,-7.60752242416968,-8.19489454241475,-9.86565394451898,-12.1370110432829
-4,-7.87630048461801,-8.41356867094179,-9.93461507922899,-11.9461412601769
-3.5,-8.15060228145588,-8.63483441115224,-9.99736302084663,-11.7479167905672
-3,-8.43060864573073,-8.85859427259386,-10.0536707129429,-11.5436048324293
-2.5,-8.71652245198089,-9.08472344834371,-10.1033102003934,-11.3343311227065
-2,-9.00857152002199,-9.31306349280985,-10.1460546812491,-11.1210829148969
-1.5,-9.30701180079785,-9.54341489430569,-10.1816809921508,-10.9047164688809
-1,-9.61213086608096,-9.77552847160363,-10.2099724984112,-10.6859675410344
-0.5,-9.92425172223162,-10.009095555699,-10.2307223403535,-10.4654636258521
0,-10.2437369678686,-10.2437369678686,-10.2437369678686,-10.2437369678686
0.5,-10.570993313494,-10.4789908785581,-10.2488398764767,-10.0212376084717
1,-10.906476476786,-10.7142997352974,-10.2458754416221,-9.79834594323688
1.5,-11.2506964587142,-10.948996588622,-10.2347127346869,-9.57538443766151
2,-11.6042231901883,-11.1822913290025,-10.215249195453,-9.35262828413174
2.5,-11.9676925124634,-11.4132575785032,-10.1874140324423,-9.13031488501137
3,-12.3418124105316,-11.6408212561572,-10.1511712254513,-8.90865212140817
3.5,-12.7273693471624,-11.8637521440738,-10.1065220139605,-8.68782542001618
4,-13.1252344304145,-12.080660095569,-10.0535067708029,-8.46800366646368
4.5,-13.5363689647161,-12.2899978007775,-9.99220618186008,-8.24934403706014
5,-13.9618286463609,-12.4900721894343,-9.92274167848166,-8.03199583511844
5.5,-14.4027652074654,-12.6790665124295,-9.84527509827418,-7.81610342576296
6.00000000000001,-14.8604235915458,-12.8550747977552,-9.76000758006926,-7.60180836626622
6.49999999999998,-15.3361316058713,-13.0161496251406,-9.66717772836449,-7.38925082891612
7,-15.8312771985232,-13.1603629525865,-9.56705910950622,-7.17857041119241
7.50000000000002,-16.3472656712224,-13.285878089702,-9.45995716477903,-6.96990642432665
7.99999999999998,-16.8854446741905,-13.3910290067689,-9.34620564318443,-6.76339774659336
8.5,-17.4469778562045,-13.4744012968487,-9.22616266831349,-6.55918232225692
9.00000000000002,-18.0326373289507,-13.5349076832453,-9.10020655912273,-6.35739638119567
9.49999999999998,-18.6424691679044,-13.5718504176644,-8.96873152386219,-6.15817344800384
10,-19.2752639517899,-13.5849635603843,-8.83214334053748,-5.96164320296545
10.5,-19.9277374787734,-13.5744300360979,-8.69085512706207,-5.76793025081504
11,-20.5933058433341,-13.5408712576896,-8.54528329079799,-5.5771528467545
11.5,-21.2603576976519,-13.4853104597984,-8.39584373166828,-5.38942162289077
12,-21.9100666448863,-13.4091140036046,-8.24294835658715,-5.20483835218948
12.5,-22.5141983573817,-13.3139171925925,-8.08700194658292,-5.02349478130035
13,-23.0341969555133,-13.2015422109873,-7.92839940250624,-4.8454715582763
13.5,-23.423863055476,-13.0739156212649,-7.76752338122195,-4.67083727634735
14,-23.6378982390983,-12.9329916790876,-7.60474232207457,-4.49964765056049
14.5,-23.645436727176,-12.7806859520465,-7.44040885339964,-4.33194484028575
15,-23.4419913015442,-12.6188217940419,-7.2748585609633,-4.16775692731099
15.5,-23.0513891085711,-12.4490904749017,-7.10840909436729,-4.00709755648247
16,-22.5161644124431,-12.2730244018131,-6.9413595834731,-3.84996574354876
16.5,-21.8835743479878,-12.0919819661523,-6.77399033454497,-3.69634585296833
17,-21.1951776501247,-11.9071420755871,-6.60656277482179,-3.54620774686624
17.5,-20.4825254043524,-11.719506299138,-6.43931961433133,-3.3995071049812
18,-19.7672538110453,-11.5299066561892,-6.27248519470396,-3.25618591423079
18.5,-19.0630698565511,-11.3390173208494,-6.10626599628979,-3.11617312534137
19,-18.3780182519685,-11.1473688128398,-5.94085127683206,-2.9793854727387
19.5,-17.7163668542029,-10.9553635513759,-5.77641381712948,-2.84572845249037
20,-17.0799784529755,-10.7632919268952,-5.61311075139416,-2.71509745145391
20.5,-16.4692415663339,-10.5713482810882,-5.45108446227347,-2.58737901886702
21,-15.8836771325775,-10.3796463739742,-5.29046352267557,-2.46245226938342
21.5,-15.3223239681083,-10.1882340600829,-5.13136366856541,-2.3401904040215
22,-14.7839789949026,-9.99710700010981,-4.97388878874815,-2.2204623326834
22.5,-14.2673441811018,-9.80622130702671,-4.81813191931171,-2.10313437889704
23,-13.7711143252021,-9.61550507390209,-4.66417623186042,-1.98807204434079
23.5,-13.2940276543299,-9.42486876125818,-4.51209600593922,-1.87514180767191
24,-12.8348932307305,-9.23421444029732,-4.36195757714336,-1.7642129293655
24.5,-12.3926040329949,-9.04344389928891,-4.21382025334877,-1.65515923186645
25,-11.9661413140711,-8.85246562728297,-4.06773719230925,-1.54786082255829
25.5,-11.5545737678607,-8.66120069462402,-3.92375623457279,-1.44220572604588
26,-11.1570537243011,-8.46958755515218,-3.78192068630078,-1.33809139219748
26.5,-10.7728117608855,-8.27758580147462,-3.64227004714992,-1.23542604742436
27,-10.4011505904341,-8.08517891266244,-3.50484067892971,-1.13412985886619
27.5,-10.0414387494597,-7.89237604310979,-3.36966641129167,-1.0341358845131
28,-9.69310439855484,-7.69921291167261,-3.23677908126398,-0.935390786772472
28.5,-9.35562941149191,-7.50575186095199,-3.10620900402778,-0.837855292454647
29,-9.02854384498835,-7.31208116694546,-2.9779853729499,-0.741504388414732
29.5,-8.71142082839055,-7.11831368850031,-2.85213658754649,-0.646327248897195
30,-8.40387188036844,-6.92458495336408,-2.7286905087537,-0.552326897701356
30.5,-8.1055426407009,-6.73105078260087,-2.60767464162195,-0.459519615307102
31,-7.8161089946064,-6.53788455735603,-2.48911624632119,-0.367934107766831
31.5,-7.53527356176174,-6.34527423126396,-2.3730423791372,-0.277610460192929
32,-7.26276252016645,-6.1534191882563,-2.25947986593781,-0.188598902808336
32.5,-6.99832273506374,-5.96252703939038,-2.14845521137948,-0.100958421590269
33,-6.74171916439781,-5.77281044396746,-2.03999444789227,-0.0147552484026697
33.5,-6.49273251423637,-5.58448403015181,-1.93412292920859,0.0699387328703582
34,-6.25115711987852,-5.39776147907207,-1.83086507387266,0.153047627295296
